967
3999.43349933624
398.825148582459
1
128
8
100.250883916078
100.056546169612
100.001845136174
100.082239457653
100.091802786183
99.9849278382545
99.8741847244775
99.8341288351044
99.9761916637214
99.8148800982224
99.6590100800592
99.7719263335461
99.8155976280938
99.8521098688637
99.9180658199566
99.8535318279328
99.8414233879602
99.8986283481665
99.8659315208955
99.8692241401513
99.9289606636838
99.8527468549822
99.9200862738374
99.8425669631169
99.8414775227847
100.177874386045
100.263345725175
99.852082947018
99.7284973671807
99.9383750361354
100.007038764662
99.8319403202054
99.8995811316069
99.9265729339922
99.9673638909814
99.974245176488
99.9492450343646
100.091418865276
100.020733248113
99.8108398703773
99.873398200355
100.054412356247
100.050471120285
99.7432218927321
99.5277746536714
99.7295413729693
99.9390614846622
99.8680272229315
99.6036622887577
99.6184322499418
99.8421863930533
99.7919266916186
99.729782133942
99.8000478775561
99.6138510628381
99.4726475633767
99.4913536467948
99.4620634201575
99.4992217655063
99.6488623163251
99.8079553344178
99.6865259551338
99.4895288840885
99.4436186512402
99.4891947209633
99.62094087631
99.6649558500536
99.3166694112096
99.0507110009823
99.2344557478068
99.3630814514299
99.1050451479446
98.9385452669986
98.9143504727834
98.7237520239293
98.7113127161026
98.6069472412369
98.275875427606
97.9809549899565
97.9121256082855
97.7847246889565
97.3971892700765
97.1163261364889
96.4021742635333
95.5771644937989
95.3334277651942
95.0454959018461
93.9579343918068
92.915582266475
92.3899970710253
91.582201858275
90.7260542682245
89.9099729775467
89.0938599308351
88.0720596269163
87.1466912390051
86.4264787787634
85.7209064153809
85.0042278995295
84.2313858473685
83.5354525158183
83.2034864085267
82.7060230958333
81.9932713758308
81.1493828288841
80.3992189829138
79.8411865211799
79.2829303641996
78.5912685791845
78.040544261729
77.5504581727552
76.9515522883612
76.199056468013
75.6788021966603
75.1316911997156
74.4390857018426
73.6822875403619
73.0908651028494
72.5053679837293
71.8834019476584
71.2089903637267
70.6060985959452
69.9950235097951
69.3002925467931
68.5149871379592
68.006285862346
67.379924807617
66.5991894755351
65.9639567776363
65.5081226429929
64.7922787686906
64.0725397732513
63.2960928356096
62.7122111496694
62.2344130460534
61.5840283761058
60.8885318500785
60.3685226412092
59.7141301516235
59.0664720229747
58.4107331993783
57.8946654201099
57.1386105732219
56.5906762754572
55.9834767125483
55.3011960805243
54.7058605890755
54.2074751538068
53.4559437243502
52.9304905251262
52.4350273997152
51.6916020644604
50.9766670838319
50.5801026564361
49.9869697260815
49.4095891444503
48.9973482915128
48.6669193579576
48.0768085423407
47.4730332093357
46.8942891628329
46.5884177319917
46.1943756208754
45.7296075132889
45.4187952950256
45.3920853715658
45.1192974528276
44.8191439630134
44.446332061003
44.1482232080881
43.996089051105
43.9473486487569
43.7666289515474
43.5524251205929
43.2093530258171
43.302166515634
43.3722529352753
43.2172775033503
43.0752887629395
43.3019195995726
43.2748519622281
43.2021819633272
43.193708502843
43.2100882478237
43.1136103602022
43.0211102515409
42.9612293969117
43.0985045415301
43.1139699915967
43.0916356071702
43.1406058424277
43.1910639691938
43.1434984085807
43.2797532798394
43.1831161419959
42.9980290468863
43.0108222484116
43.1277432762257
43.1530441101299
43.3044512412287
43.4570237210148
43.4385288701014
43.3945324210562
43.6287596350593
43.7458742372446
43.856432769717
44.0572113489874
44.3483777190372
44.4289795746288
44.6510676664191
45.1199506786026
45.5468495118723
45.8525152977281
46.3087038282619
46.7404551360367
47.1969410148307
47.6918783165282
48.2879778172428
48.8648531579398
49.4310657355846
50.0430213959897
50.7168471067203
51.3536374709442
52.1205385395679
52.9075420730387
53.645829236107
54.3737161067683
55.1472450010279
55.862372773024
56.743129562889
57.7173606295024
58.5312470455804
59.3062838360264
60.220255783432
61.1573598347281
61.9991139845223
62.844718240516
63.7181046026771
64.548445235428
65.4351500339326
66.4099287889879
67.3729528676224
68.1632272875186
68.9123446171684
69.7730329431295
70.6892422073693
71.4599728279464
72.1678466271971
72.9982337819174
73.8640714493184
74.7082453715802
75.5833102403183
76.336206242763
77.0078220897901
77.737921683705
78.394650824383
78.9611448223177
79.6436279108976
80.4435636844233
81.1547506279397
81.7964902895475
82.4405443333992
83.0649072762706
83.6363265328299
84.1581957164133
84.7272291528891
85.3023267205918
85.7932064836175
86.2628096261499
86.7412171013432
87.2479499114227
87.746620597163
88.1717190993533
88.6549181733331
89.140799421802
89.5094044198149
89.8981642771088
90.2871851062671
90.661310484379
91.0740064343487
91.4229846898647
91.773326289466
92.1807297484082
92.4516906911843
92.6480191602493
92.9771579892238
93.31228223777
93.5822452820024
93.8314252900251
94.0766150514982
94.2709165068304
94.5128993337501
94.8682034010683
95.12014899585
95.2867231796632
95.437864951867
95.6826114159532
95.9427738789819
96.0405635829666
96.1989833663663
96.4625749054451
96.6395878986976
96.7907997516716
96.9089678013634
97.0017614082517
97.1102856448167
97.2965229507784
97.5344762841688
97.6197817817904
97.67759274
97.8600078366928
97.9836225430228
98.0497645915186
98.1514239400068
98.2277216270082
98.3803518300114
98.4926787116716
98.5401451101808
98.5990058226106
98.6548650440378
98.8131986985102
98.9596475464192
98.9633448985842
98.9428132347819
98.9904013530472
99.0919595357741
99.2109409554156
99.2604031583837
99.3135760095584
99.4620563055749
99.5139858980898
99.5320162557658
99.5801279708777
99.6224972176934
99.6868834923548
99.7456714729773
99.7681608916618
99.8562721709112
99.9141578065216
99.8823505440107
99.8607796917084
99.9445014274454
100.026870293983
100.017835066604
100.017961142378
100.059190740097
100.041711780621
100.053836308289
100.091411508214
100.136232395817
100.189993755951
100.224665565149
100.217284916939
100.185454273466
100.191903327679
100.259119621329
100.26361316547
100.248227391863
100.297710247516
100.296458384008
100.273564347023
100.329938010966
100.340109238509
100.319152075507
100.313424520646
100.308188427113
100.357967928028
100.377932392743
100.329978209751
100.414832540551
100.447792750076
100.333171141269
100.305316878273
100.443605621627
100.503904331644
100.481030309778
100.414093615064
100.449370434251
100.515325640317
100.48365362144
100.320825421164
100.298160621029
100.538837260758
100.691998333235
100.507256515948
100.401470564529
100.486129499679
100.528873517791
100.409165939473
100.344013559461
100.425828859067
100.509377460552
100.449577264399
100.460734396669
100.440929550177
100.345433833004
100.293380568233
100.310126164402
100.286234277807
100.255958382734
100.308500705694
100.299686189378
100.297899110371
100.345453199982
100.285674498725
100.158721458549
100.130030353071
100.199051511366
100.268293566278
100.143254968926
99.9327797109514
99.89390955768
99.9199851267207
100.04509070354
100.070924639866
99.9223174548134
99.9567783253818
100.032815768185
99.8108560751507
99.6851394590489
99.7007528704329
99.7311749820771
99.7535794672407
99.7407972690486
99.7304844946663
99.7366639249423
99.6915372720954
99.7482416042841
99.6698642996611
99.4219023093024
99.3275305201687
99.3661791251871
99.3801907198756
99.4141634919819
99.424779545003
99.4209773808151
99.39922865484
99.3192386125549
99.2268059299845
99.1829103045198
99.109764167943
99.1553562000248
99.0811128357801
98.9882297977216
98.9668381363502
98.96392493048
98.9816442396961
98.8510571847135
98.7883071119316
98.7787313830491
98.7102290014931
98.6165363450206
98.5067886054874
98.6379205523842
98.6865839856882
98.6169775385691
98.5605328910534
98.4941554815913
98.4220748732855
98.4742637762189
98.4980028777609
98.4846838399566
98.489977774271
98.4118625374987
98.393371330466
98.4687288316246
98.4799090007757
98.5674856542153
98.6396550398173
98.8607298204099
98.7749710739363
98.2702231230989
98.2643585582108
98.5708929250255
98.3443245709401
98.3982171971519
98.6892821650297
98.8358994328731
98.7831797558277
98.8121770996252
98.4421476650106
98.1655054865877
98.0531476269442
98.5858249656121
98.8945592430494
98.7500629664595
98.7947435031141
98.9033387825506
98.6271174915983
98.6213226577145
98.0801807758582
98.4960080293316
99.7090978232688
100.150306490366
99.2500346858973
98.5333191280426
98.6033251235394
99.0399823150715
98.5547714670023
97.8398118416455
97.3904902380729
97.3271652208421
97.1456858397361
97.0662282616304
96.9726308875711
96.9804356786822
96.878348052526
97.0191236953307
97.1055780388802
97.1858709670057
97.3600809193448
97.4170659824382
97.3609586491414
97.4139759163821
97.2643037087507
97.3871714981838
97.6747026162695
97.8049591867485
97.9148568742596
97.9207757389278
97.8517913537226
98.305479344696
98.2113602139331
98.2184652498267
98.6423085981343
98.8751729800252
99.0327699371378
99.7041397960763
99.8345770711389
99.7979093062453
99.6301107559519
99.7212679521712
99.5430304926538
100.093301941604
99.9446707556464
99.7613224531757
99.8998898209619
99.8174991776521
99.8129405371203
99.9455137486246
99.693841852148
100.21393494156
100.460062039166
100.421562500434
100.663871620579
100.084147554918
99.2991525435093
99.7375665993888
99.6213751467824
99.7807909266692
99.8030220473303
99.7032924481134
99.7919113068479
99.8194261758944
99.2497523436227
99.1076529803717
99.1717536783831
99.3326510200218
99.3457693975516
99.4405950918034
99.3503300294628
99.3360833208596
99.2097163420767
99.2434098867565
99.1794979986579
99.0518980120403
99.0464208327259
99.1998143043345
99.1732380676167
99.1555756601231
99.1738530721737
99.2128605651764
98.9911401234262
99.0464264200214
99.0859764392296
99.0092788796335
98.9784600632918
99.1248668671803
99.0744082423223
98.8691422821987
98.772647932787
98.8605427089942
98.8299349542138
98.8130348213604
98.7055920943165
98.6207278812812
98.5431796564048
98.4985049512785
98.3393475808006
98.3278711380245
98.2429415864655
98.1809669482061
98.0951446461295
97.8992994725433
97.7744223907267
97.7304495127994
97.5438714252909
97.5209879651503
97.289012108405
97.0203300531237
96.8764930357617
96.6562599860274
96.4111547894332
96.2424684183488
95.7847789680548
95.4554686786224
95.124417174715
94.8290260017548
94.2807202459384
93.6266484397793
93.0245966176897
92.5672888485126
91.9826941377234
90.9762464914902
90.0398156540539
89.2109485593015
88.2262674274414
87.2055646678549
85.7224426952709
84.3651302737025
83.1733879045624
81.7878458345666
80.057226491023
78.710529115122
77.137575822724
75.5375139581468
74.0134635439818
72.3841375752231
70.8203215895349
69.5086988691054
68.0287697081795
66.9850519535685
65.8684938079643
65.0498188598241
64.5377895445248
64.7375858151005
64.9301157091254
65.5873943723921
66.775890309948
68.1829056597414
70.0240732130052
71.6384809065104
73.2171216961078
74.9451793806102
76.5156066086436
77.9442702663557
79.2770240136252
80.4522167446843
81.5224991600703
82.3958000949565
83.2480308438928
84.1135977641888
84.8047922215887
85.3716678850527
85.7957736154207
86.4327610739616
86.985339158092
87.210843101827
87.5038843222273
87.7397305858299
88.1511485354776
88.4244121441348
88.5747361521372
88.721878772486
88.9124240968511
89.1069380489369
89.3382383154674
89.4657625507129
89.5578094938232
89.6794038359918
89.7724536996224
89.8283183164903
89.9625304453091
90.0204171424213
90.0644508897693
90.1161679356726
90.1748458032984
90.2535268464568
90.3052832346068
90.3067738325485
90.3605645561346
90.450982402316
90.5387132952283
90.5689054848011
90.5315533131098
90.4939065113562
90.5450026014001
90.5950707006921
90.6313997062419
90.6253355346163
90.630557936719
90.6524902827811
90.6866259893527
90.649558016434
90.6384262589915
90.6581687112566
90.6568587861878
90.6745854053575
90.7131475185747
90.6850010360066
90.6629283810413
90.6749914199185
90.683076022456
90.6699290888192
90.6619943500505
90.6506377511834
90.6585273790436
90.6496211230831
90.6106600075643
90.5816124039332
90.5959973952213
90.5885549554652
90.5634432585973
90.5420626803771
90.5094221746788
90.5135285591471
90.5242097596308
90.5024505350204
90.5142677661944
90.491232206037
90.4566396759903
90.4517764827839
90.4428048263739
90.4333243538394
90.4288369693799
90.3976131872241
90.3889695072658
90.3891789279436
90.3641367842479
90.328819143881
90.3274983002418
90.3440857994071
90.3637070286505
90.3687549424728
90.3642749841923
90.3284929367209
90.3092352785683
90.3044123024442
90.3162213792848
90.3308212003753
90.3217571218212
90.2951275386653
90.295034853473
90.2988670002673
90.2881468367533
90.2774963026328
90.2640230683265
90.2688343200936
90.2884630576297
90.2558900687998
90.2576257451863
90.3017648568795
90.296828170395
90.2731253712788
90.2676372416942
90.2761163620631
90.3248731142687
90.3430957017152
90.3180106529889
90.3190368347068
90.3341543103274
90.3184145485743
90.3307937836052
90.3513881252998
90.3549474357568
90.3573008246136
90.3639918555912
90.3460049532043
90.3388395303226
90.3702689227411
90.3747547199658
90.3135787132171
90.3000811196668
90.3616625507007
90.378769108047
90.3327542839465
90.3008996937463
90.3198799754531
90.3392441942973
90.3057392118142
90.2909417389087
90.2937697195228
90.2423263953944
90.1968772488746
90.2063871590591
90.1828951206943
90.1194993140908
90.1013368192155
90.0789580220293
90.0367794114274
90.0162964054031
89.9784246041603
89.9434230278236
89.9291722342205
89.8785821650082
89.796612242462
89.7148945058712
89.6596487006636
89.6420905658007
89.5960317672299
89.5223007483474
89.4257816119216
89.3245171565414
89.2703710161272
89.1903562627985
89.0539040567435
88.9376779788569
88.8296740939275
88.7083019315748
88.5866112861519
88.4568303482934
88.2775588358557
88.096942336949
87.949537442158
87.7543023261131
87.5346048585021
87.3372888985606
87.0848995001292
86.8041768772522
86.5428705529962
86.2595549954778
85.9868634751205
85.6705727749092
85.3116983112352
84.9814733700915
84.62111154867
84.2024493339057
83.7889816107323
83.3682938850249
82.9393867670293
82.4834569346822
81.9747873542206
81.4361564417208
80.923983009059
80.4228372587097
79.87154298014
79.2687408270135
78.6839811575626
78.1404386749549
77.5484745626094
76.8736439054417
76.2046608176603
75.5567274411101
74.9130955515813
74.2682943534191
73.6189688716333
72.9588413214866
72.3050303558192
71.6374950374251
70.9412693320182
70.2130469247956
69.5347500035835
68.8934649618297
68.2221392625631
67.558730790958
66.925425160437
66.2515233462925
65.5227085515589
64.8032304788264
64.1235211074353
63.4768362736819
62.8570435155432
62.217388515383
61.5714025828133
60.9126875997049
60.2690301648868
59.6586514735696
59.0358884537547
58.4135744231999
57.8357595298119
57.2110737102242
56.5653933996766
56.0027794273581
55.411206765887
54.8086565103757
54.2634465068332
53.7377463929468
53.200775895087
52.6317168373873
52.0960228938329
51.5652799424012
51.0790638925126
50.5827574780733
50.0688517984984
49.5826613241615
49.1039610467482
48.6616788597178
48.1966004258595
47.7169964669317
47.3391097999811
46.946134716028
46.4328014762588
45.936002019149
45.6445261279689
45.34892952087
44.9128390301632
44.5067500283162
44.1189626220985
43.7817257333046
43.4566802728025
43.2041081869392
42.9347026840035
42.5636868747045
42.1972548817003
41.9009597384067
41.6645240255462
41.4327667242958
41.1060542756289
40.8806681077026
40.6945747921322
40.4508888550635
40.1582855228801
39.9937527172942
39.8385405170509
39.662190366912
39.4414881647887
39.2826844245851
39.1614506192686
38.9846404491431
38.7798925663825
38.6904542955265
38.4868852625697
38.4048149866118
38.3963730123956
38.2020629329128
37.9605844674196
37.9360537938232
37.8088805914393
37.6582938948008
37.6363371629461
37.7984316791613
37.733938692351
37.6636821318738
37.6342763001799
37.7016695011755
37.7460950031748
37.8565981805091
37.8649393553416
37.9558341440078
38.15016924801
38.2566517160307
38.2130385274895
38.5385917680886
38.7660341359258
39.0163044101419
39.1572445872942
39.3554286350472
39.4478435867224
40.0116671881412
40.3237320290549
40.4538307762411
40.9516437141827
41.6247181578266
41.7040379421949
42.0484182718459
41.9591769006256
42.8836955164145
44.6296019813712
46.1947443834468
46.6742382606065
47.1154268902307
47.82176608112
50.3787229834159
52.1819711786584
54.8603529220716
54.502858173664
55.9254963146548
