967
3999.43349933624
398.825148582459
1
128
8
99.3572101746788
99.5034258109359
99.6499031883556
99.7060812001273
99.6056514055548
99.5605642418914
99.4423056872837
99.3980003334773
99.6225255075506
99.7616458245317
99.5103843773473
99.3442273752459
99.5072835707198
99.5671077717554
99.5111537672862
99.4037073622301
99.388059987811
99.429855090905
99.449663361731
99.6191524507802
99.7225444871909
99.5528268599385
99.4494867428449
99.6411958311252
99.697220095394
99.5158232454079
99.4491585532557
99.407291865518
99.3801817877478
99.4749709734856
99.4521753432631
99.3949360325314
99.396502261899
99.5600662235704
99.6220602417341
99.4388020591357
99.4090709147415
99.6818315799663
99.6443489659879
99.3482282477498
99.3153933027588
99.3787396620238
99.4243745907331
99.3779634649927
99.4732236099616
99.4016774033472
99.2453682492298
99.2321032000742
99.3336339111719
99.358846429967
99.5088262527568
99.6648724368609
99.5107149185519
99.3603821351798
99.2613444650577
99.1821242277129
99.133630165937
99.1150829908854
99.1841298229374
99.241126941714
99.1491072381338
99.0000192606669
98.9688325243787
99.0231708589205
99.0377669845697
99.0965250855272
99.1126859825184
99.0411803081737
98.8042305193993
98.4930800231403
98.6038314080918
98.7066879739186
98.6455267897189
98.6546557070342
98.3399752284471
98.0509831616873
98.1392985037394
98.0777589703627
97.4995181113036
97.1016074971415
96.9917147986175
96.9398594056517
96.5651663600107
95.9141392478829
95.2046117162131
94.8322996259792
94.4029476718428
93.5460020538892
92.4972252636463
91.8854545038153
91.3169633225047
90.6734399653719
89.8588186303338
89.0293859825664
87.939211170703
86.8674782424907
86.3541331608008
85.6791506305391
84.8369309183382
84.0332100351803
83.2364958206836
82.7689088302244
82.121809385881
81.5468293236439
81.0406029664223
80.2936105581474
79.5618276615551
78.9746831205996
78.3416768150802
77.8836657328483
77.3006818315523
76.6380903121431
76.0398764573879
75.489313201866
74.9229434193622
74.2538260177433
73.5730714142078
73.0544270168754
72.3662180696149
71.7704131913406
71.077044451725
70.432238215845
69.6873233108111
68.9767459530246
68.441394890795
67.8711759777417
67.1915653471771
66.6066589145594
65.8596478143638
65.2019730744227
64.576908223558
64.0669925643896
63.3760270069793
62.7327040495634
62.0761799466152
61.4605492338163
60.9268490682445
60.3185447194823
59.4995691639967
58.9392765169461
58.379303820242
57.8028162267469
56.9815016011936
56.3032279531406
55.8955604129134
55.4981895398565
54.7726983700301
54.166833609887
53.577579165115
52.9472671958092
52.1354622458343
51.5645614421439
51.0759453963015
50.54610042614
49.9443523275291
49.4774514502357
48.9563546205687
48.4997719435462
47.8759947153088
47.5220782511188
47.0776487212837
46.535101143657
45.9997730786702
45.761566267375
45.4941843187898
45.2241674580232
44.9567498555816
44.6942348852071
44.2812968504923
44.0070542210245
43.8296507904218
43.706600257706
43.5522340866047
43.6201511234461
43.5274408327057
43.437585622191
43.2118006290044
43.0548322039156
43.1629257264202
43.3598769102581
43.2324798546073
43.101774091021
42.9910292729933
43.1428642379051
43.1930334457863
43.0717428344672
42.9518416451928
43.1095015367745
43.1507341826787
43.0489482043343
43.0078584732091
43.0779615430763
43.0559116876567
43.1042621313432
43.0179236861706
43.1028306501385
43.1722645026321
43.2702713748031
43.2754619467726
43.2322027857254
43.2501900575192
43.3353776169861
43.3659912099913
43.6009825487897
43.7943316865076
43.9099534583355
43.9850627208103
44.2837917570819
44.5554701659276
44.7920511712241
44.9891353353745
45.2686594455032
45.7153800654958
46.2042661504685
46.5365301121034
47.058428640189
47.6924875912543
48.2539631282212
48.7700215071113
49.3548172705769
49.9043356254092
50.5377704638101
51.2870547997622
52.1563389281188
52.9029399630325
53.6144742591009
54.3256313982261
55.0699719108079
55.876604146103
56.7140623782525
57.5694950197682
58.402998394979
59.1730512948695
60.0931992642393
61.0405256061832
61.8861928753064
62.7496369137334
63.6249349235215
64.3393928822419
65.2241507411959
66.2661764675984
67.1814671011461
68.0540442429577
68.9362869559528
69.6853360121845
70.4599580994647
71.2324449555455
72.028102317049
72.9875126225178
73.7933716543362
74.4470644375972
75.3112499713274
76.1376362368746
76.8195644535817
77.504688000425
78.2164012236286
78.9975168693521
79.6446742478864
80.2382038440753
80.9246437652259
81.5457934495941
82.2098574498404
82.8696041775627
83.4136221268384
83.9418875175908
84.4568094460505
84.973712186323
85.5304072670542
86.1334865740681
86.6865281839854
87.1071528537306
87.5427353588527
88.0244199947292
88.4674967166243
88.9047501290353
89.2942432939879
89.6585680778463
90.0537846375575
90.4764009574209
90.8724763896384
91.2547044585194
91.610140785974
91.888915163098
92.1903919262459
92.5198708836608
92.8453446615175
93.0678818035682
93.2882886168238
93.5944465278153
93.8318848312078
94.0798051505004
94.3927590148539
94.6309035749308
94.8752295115535
95.1286536121202
95.3322584709694
95.5299707507924
95.6910203593887
95.8267795197119
95.9663691274486
96.1014520000488
96.3112287078936
96.5563196804874
96.7334847272706
96.8427282012558
96.9805218272951
97.1332168082773
97.2058849321254
97.2453083096383
97.4402121809575
97.7333123848515
97.9185178401507
97.9543369621577
97.9528484424408
98.0168252580457
98.1569060917673
98.2340584032466
98.3217071382611
98.4544254564345
98.5607607517063
98.6465939091075
98.713671869318
98.7429865011468
98.8481837950264
98.9957359533718
99.0633741253327
99.100786327052
99.0761598757864
99.0983260445007
99.2580343313091
99.3802031736186
99.3811656918193
99.3660076082647
99.4702973178197
99.5808543816486
99.5698060629202
99.5755577184861
99.7178952692375
99.7726767966249
99.7329921384604
99.7255426268697
99.7860316803165
99.8512038317012
99.9265649747525
99.974444401335
99.9617713740995
99.9487788090752
99.9733777674962
99.9971269276911
99.9801367429552
99.9564481131846
99.9774000306491
100.053823971961
100.149397814165
100.171517670063
100.144561783531
100.111216790808
100.09822182817
100.13250223787
100.181821257128
100.134538642214
100.092292114755
100.132281747846
100.217655063817
100.216181985314
100.214899348161
100.233865035645
100.170270520169
100.133886459912
100.269806990372
100.363830800001
100.325007413378
100.240272484194
100.234482032845
100.25596483745
100.23943032801
100.193977395995
100.277039080506
100.380512820362
100.476956093761
100.514002634663
100.386575335123
100.202608948296
100.18730329123
100.3197058128
100.403356799982
100.338298973974
100.358333887793
100.384226736518
100.300117714778
100.20750179216
100.1722616043
100.181425587209
100.223393088412
100.22258623397
100.222829653384
100.217158532622
100.234284390646
100.185573016789
100.129701951943
100.16664258012
100.152923689166
100.11679321395
100.105379832794
99.9484880307741
99.9782606393076
99.8997357784848
99.92813210692
100.024977364588
100.009473648724
99.9176663727381
99.9177978399361
99.9675771330798
99.8684962225112
99.8074712733871
99.9036192016566
99.9159755313095
99.7358652251792
99.5249610991109
99.4468954832064
99.4868079697333
99.6204897176984
99.5724831142777
99.4796838457415
99.5136145241826
99.5244179983338
99.3768550911185
99.3558004558573
99.2950850079785
99.3072073953184
99.3521463460824
99.3679632297559
99.311442824369
99.2053661528765
99.1499906175898
99.218782480893
99.2420572168083
99.1345144948106
99.1611477760065
99.3746198961387
99.2279882210927
98.9629694517892
98.8509351460747
98.8086913560358
98.6717190347335
98.6166624115999
98.7389503736212
98.8232716419891
98.7867033369538
98.6432518299549
98.5112975987144
98.4471570978056
98.4255439167166
98.3577553990548
98.4305289390865
98.5210044143994
98.2901973977295
98.1322564159914
98.1993220576403
98.2028819527782
98.20585736589
98.3266797896084
98.4376024301321
98.3604446386744
98.1467765509675
98.2449810061455
98.1827016824449
98.1102400729328
98.0951671069849
98.1979600000353
98.5117158591792
98.6821851580145
98.4461409546266
98.1079762410417
97.9986861969983
98.0220798494604
98.2068826122332
98.5713985533795
98.2953920562968
97.9918982883039
97.9585462033802
98.3783515921571
98.2515096987881
98.0854630004923
98.1397090950867
97.9206380265719
98.2235259714524
98.4911896294481
98.0115984330588
98.238476319778
98.257427229968
98.3964679927616
99.037981709329
99.3417770976054
99.3361149927275
99.1373181271118
98.2296828518062
97.942537039865
97.8151406072836
97.7312393289638
97.4198891071177
97.0632314214725
96.8424667253132
97.0582633912402
97.0432445317372
96.7379399436633
96.6440309532309
96.7182049663137
96.6484370522802
96.7936104618784
96.974273713212
96.963719367953
96.9679171125525
97.0512122721979
96.940670056312
96.9932014341861
97.0363090686974
97.1380724591895
97.5365443639401
97.7189658110414
97.7453863199367
97.9022310810339
97.9231283697123
97.9523733955524
98.138776568661
98.7018730251188
98.816091470211
99.2884720790756
99.2890089221095
99.0894969460907
98.836517955455
99.2201273301751
99.8766218762626
99.6391234804561
99.0000981246632
99.3485754282774
99.3774702909779
99.3355644445358
99.1193407896328
98.9228257569885
99.3022372446535
99.8815025502803
99.8606762433983
100.241495741679
99.979450433676
99.9492592023441
99.8325587317004
99.4324497087027
99.2049302590731
99.3157181847088
99.4277602686149
99.8272616332784
99.4101346808424
99.0894289611957
99.1902129199548
99.2312381200414
99.0122017859441
99.0280345993625
99.0826023902074
99.0720519448245
98.8235395060803
98.9255542045772
99.1314949026045
99.1922943260208
99.0332303407957
98.9147636882707
98.9712363378484
98.9809928423625
98.9812093236732
99.0994094023108
98.9238227500104
99.015115710984
99.050024969284
99.0003927132333
98.9226711367358
98.9009299358786
98.8379300831945
98.9703388073896
98.9229013953764
98.798179581304
98.7867200148921
98.8125272263542
98.755248527781
98.6146494583772
98.4294789587467
98.5097678321656
98.4686561055861
98.3795952480064
98.293561436255
98.3046319461781
98.2057805075759
98.1171516691503
97.9414159237935
97.814118228549
97.7794787137735
97.6696335771733
97.4864912892906
97.4592615022474
97.2457941095266
97.0436202503276
96.8164010088133
96.5632458847081
96.3117297882412
96.1466589219323
95.7974574795592
95.4671491874564
95.1048868642538
94.8219396187574
94.2391806388858
93.5851548511527
93.0861766327034
92.5978366880057
91.8986996090745
90.9142661016819
90.0088822002416
89.1839834557465
88.1957322302123
87.152810455073
85.7240941838462
84.410672644989
83.1812895369174
81.7436827532396
80.0259775531165
78.6951340003108
77.1289189599956
75.5457176171363
73.9855358353048
72.3462747039972
70.7812118185102
69.4113189781935
67.8958397137358
66.9281389576765
65.8767768581076
65.0557272988142
64.4883202273351
64.6790376669367
64.9324428605929
65.6222019081931
66.7716948159641
68.1730610315576
70.0189632025758
71.6134395685728
73.243521732038
74.9472033387588
76.5155986465994
77.9755927166185
79.2875269279274
80.4751102061217
81.5606677962619
82.4246726989684
83.3076661488515
84.1441447079667
84.7922551070193
85.3928506441139
85.8074527836772
86.4185381635735
86.9854199518444
87.2233030866989
87.5328687155285
87.8417842001291
88.2067363468307
88.3892656338795
88.5650162462937
88.7854281429474
89.0135864798956
89.1909019156986
89.3554255767986
89.4588026062748
89.5730080656298
89.7504353042413
89.8777658825703
89.8864586105299
89.9513309470135
90.0357639798392
90.1077318895338
90.1604299200078
90.219958300855
90.254376974011
90.3361010438109
90.4272470148298
90.4819272973654
90.5034269173435
90.5475445639217
90.5788625384549
90.5979941847596
90.6352914395873
90.6661667403047
90.634152992117
90.6518886882604
90.6876823421626
90.7057914508743
90.7316316561196
90.7666806060623
90.7176849333317
90.6918268926984
90.7060632574348
90.7135419205441
90.7250271928434
90.7619195983757
90.7331588581035
90.6958315815389
90.7112257708314
90.739472524979
90.7100070098194
90.6937018942699
90.7380900211351
90.7432765707968
90.6648351745009
90.6463430384867
90.6550771583884
90.6501994237922
90.6279088741636
90.620106870451
90.5912013391217
90.5696903597353
90.5863072292845
90.5819781799938
90.5603736165873
90.559232336739
90.5486295966558
90.5390929788758
90.5046358305834
90.4875732811808
90.4922868304664
90.4700806276574
90.4309806075838
90.4107773834438
90.4181197972453
90.4354461032216
90.4321043034496
90.4265250604989
90.4033630764586
90.4024469579534
90.4085962019147
90.4101946804506
90.4086231177596
90.3940154961107
90.3634258369004
90.3548199816578
90.3700076587628
90.358225804247
90.3322147780919
90.3336849551832
90.299672631907
90.2817372088449
90.3220418891884
90.3222261529416
90.2842539511726
90.2695491129485
90.2745285065143
90.2895498003483
90.291728972077
90.2881223379976
90.2778964950992
90.2914000295727
90.304155934318
90.2938368672408
90.2889469443313
90.2940405450372
90.2830926683688
90.3092695115914
90.3302578192859
90.3182936091693
90.3365005202516
90.3570597374574
90.3438483462079
90.3441135282286
90.3589233673205
90.347553259807
90.3148627045094
90.323113308402
90.3454371926096
90.3440488127999
90.3263594961081
90.2975491378908
90.2798399435603
90.2894797274827
90.3039251361435
90.282659699364
90.246695174813
90.2344159030626
90.242032366775
90.2642559056884
90.2557703584102
90.2166603532339
90.1903317892349
90.1636369547944
90.1277975089847
90.0992417937586
90.057695939486
90.0146315218684
89.989544651396
89.9490091545734
89.8890206675013
89.8366303561852
89.8086638219006
89.7798336811653
89.7232509066948
89.6621641627116
89.6000734804313
89.5103138190454
89.4067854442878
89.3314792159477
89.2549716506179
89.1472133075214
89.0488694356557
88.9424370460936
88.8135623998888
88.7082969537133
88.5810509503381
88.404491119332
88.2517932429683
88.106438184269
87.9170755612309
87.7191053214931
87.528122413316
87.322695907583
87.0781057510659
86.8053357811468
86.5620236599699
86.3006158353327
85.9792212677691
85.6465905620181
85.3186279785333
84.9719142556398
84.5988612823907
84.182212881764
83.7433855420026
83.3279453071387
82.9164969983998
82.4578868771786
81.9580915506431
81.449149898103
80.9156972404125
80.3548112424145
79.8053204970058
79.2425294313793
78.6468688169567
78.043367916106
77.4289524286236
76.815174296467
76.1934700504859
75.535998229399
74.8939833486071
74.2429377368052
73.5635647471617
72.8957246138671
72.2377109854183
71.5680752890525
70.9190033272765
70.2447909111387
69.5558046593106
68.8461597141732
68.1488880697453
67.4962760185596
66.8183527308789
66.128758604231
65.4924463293201
64.8198861001626
64.0817978556223
63.4101777922465
62.7787889180011
62.1191218684434
61.5135296877506
60.8687965959729
60.186003167517
59.5679619987413
58.9501250021205
58.3278875806399
57.7245341051578
57.1057516430264
56.5322779007011
55.929788299012
55.3055825213223
54.7249796527492
54.1948059959334
53.6674808197571
53.0561752176397
52.4709041741359
51.9799560594968
51.4790292863928
50.9506434239025
50.4368144939808
49.953656673266
49.4833794357938
49.009116383843
48.5291301371433
48.009613033467
47.5402174586542
47.1603424985571
46.7473144779716
46.319277903889
45.8970971237199
45.499170373909
45.1042138469094
44.7633052081784
44.3621447698884
43.9456078207888
43.6708409331605
43.3059412789731
42.9390077028959
42.6365355750295
42.3372573642874
42.0706721443582
41.7819497953052
41.4251239751807
41.1936752901554
40.9781945174646
40.6759797518352
40.4083181024452
40.1326810178304
39.8587429300758
39.6763941103517
39.3780328946259
39.2098068010539
39.1949141300168
39.1075003297236
38.9371124228405
38.7410712415772
38.4468544587335
38.2774416096535
38.2198267731927
38.1264901797907
37.943804457665
37.8111422656046
37.643959345546
37.6070761647069
37.4768257871353
37.3375070272494
37.2512507178285
37.4414325822782
37.3854378745341
37.2475040772119
37.3028620917106
37.3828033718238
37.3194062998502
37.4093553986803
37.4757885651054
37.5855776965855
37.6459414301531
37.808569900027
37.9189897096217
38.1261764649241
38.345527339851
38.5962174637576
38.6757581242002
38.8087588667701
38.8994900973206
39.2065072383153
39.4527762286642
40.1177157415453
40.6418713643542
41.024932776093
41.0147987494987
41.2587510584695
41.7847557333314
43.2216738621512
44.2479887723854
44.5143470225126
44.4039782958077
46.6132155062746
49.0783749368835
50.6170298055918
50.9338567305988
53.6796309776709
53.5939890517604
52.556120917266
