967
3999.43349933624
398.825148582459
1
128
8
100.001460987118
99.9303117378294
99.8054837083461
99.777924775068
99.9232470738167
100.136959828645
100.202036916579
100.03530401489
99.9232917961872
99.9200635142282
99.9122972968126
100.002131282937
100.10374544936
99.9316268434006
99.7928854924802
99.8184479123291
99.947019976342
99.9382122287945
99.7335543172378
99.7336870102002
99.9008708697
99.9623288282813
100.0399215868
99.9950661902157
99.9654410337242
99.8739924070834
99.7498266533441
99.6887951154421
99.9728582518843
100.158021744159
99.9614364979476
99.806370410222
99.8030151377147
99.910673810247
99.9727858391688
99.8198365408895
99.671509078656
99.8253441905327
100.224671613056
100.094537150715
99.5623741600574
99.6742028235842
100.035912042842
99.9004808206314
99.6651745763111
99.6729886582807
99.8602949507664
99.9450529500396
99.8455862519868
99.7106594753445
99.606813677061
99.5707003379288
99.659024685081
99.6739064718475
99.5073980211898
99.5184351535684
99.6945670638887
99.6529195718584
99.639581944085
99.6189235759528
99.6486447454839
99.6873952069117
99.5667576598179
99.490257257092
99.5421617324031
99.5932907252527
99.6867376089625
99.4037692602773
98.9072710019195
99.060798133773
99.5632660480125
99.3091038614797
98.8902861727978
98.970454655754
98.6596292395827
98.4727034972893
98.7096382868295
98.3415839562273
97.8726458396858
97.8155849122699
97.5369360886977
97.1111525392285
96.9814738208617
96.5161196059621
95.6062102443717
95.2439912356011
94.9979656705976
94.1037707929797
92.8421576507431
91.9998068635891
91.5078634199756
90.8499267784026
89.9054393491532
89.0372044235603
87.9859872725653
86.9846747741815
86.3210186683386
85.7763138238476
85.3438524071724
84.6953207545653
83.6629775173085
82.9207244626205
82.2942782174314
81.709285057561
81.1693594546243
80.3982055612403
79.7347527230936
79.4090160942185
78.6070386246347
77.8943224879459
77.4194826430196
76.8100228232166
76.2442843270714
75.640780304163
74.8231528258106
74.2877753500482
73.8760041879192
73.3686710265358
72.4864602983464
71.6031101547743
70.9424848702473
70.5806800081306
69.9525668643223
69.4079717387184
68.6788463332466
67.9626020567718
67.3391406794561
66.5965085974283
65.7224149779446
65.4101354082898
64.8295002072176
64.1175112846689
63.428441001774
62.6873036024341
62.0593747714742
61.7031311659752
61.0995515285715
60.4182508184879
59.7715380583035
59.1876134295128
58.53162642037
57.9951596586013
57.2872074816728
56.534970129802
55.8954316855502
55.3420311238687
54.6327845989641
54.1530012934159
53.5731060997009
53.0259711175674
52.4076798915133
51.7985708406817
51.1823692309671
50.7282435990719
50.2137907351653
49.711688226803
49.0670618342973
48.5027369018973
47.8765017943439
47.4301044467901
46.9871158116329
46.6744486308847
46.3072038240925
45.9260731745235
45.6117716611987
45.4081289308235
44.9130011419011
44.5868490997175
44.3170819151807
44.1128080662078
43.9066727911689
43.8408564039648
43.6045569237058
43.504402375572
43.5013679045235
43.4765496280058
43.3152518854824
43.2719219187912
43.2671707283234
43.3455867425613
43.2269232610625
43.199383705554
43.1265298009687
43.2390983401209
43.3291151453863
43.220115915021
42.9688108824747
43.0158357314954
43.0267721951543
43.04498608233
43.0915171684171
43.212419153482
43.2516075151459
43.3360734006545
43.3395558934221
43.2834690859656
43.0593413890651
43.0195529190363
43.1966799841502
43.3838712511238
43.4288428533447
43.4439192919276
43.4471802389296
43.7243237840243
43.8886669843538
43.8720349843575
43.9239095585494
44.3304149704316
44.6013895947834
44.8834787551189
45.1541246525261
45.4623452693259
45.8148009164986
46.2150152883746
46.6062559623268
47.156529841385
47.7208589309385
48.28999668875
48.8481070325693
49.4112726187747
49.9771568945719
50.7071971150746
51.4456605165551
52.220370841284
52.9844973181221
53.7343058218447
54.4528982526141
55.1029058800541
55.8938837036948
56.9075157708475
57.7629476366562
58.5487042859433
59.3146449968335
60.148780451676
61.0830687851813
61.9914044349994
62.7399898353058
63.5915238465048
64.5981035691801
65.568604930113
66.3873679253801
67.2011223185477
68.0683764406801
68.9549025903101
69.8428056171983
70.6871549731168
71.4914830350206
72.2462490701922
73.1148130042156
74.0631514538725
74.6899195339302
75.3461837122436
76.2109560077652
77.0235731462808
77.8071635709561
78.5100487119276
79.0928737728235
79.7302466544626
80.4442601242239
81.132957941915
81.7730560422417
82.3589174415961
82.9204386468916
83.511603052293
84.0861749420506
84.7303524835332
85.3144647479656
85.748685602021
86.2132749491188
86.7729315267101
87.3657025876863
87.7776845259258
88.1536956026523
88.6752990720512
89.111932637874
89.5117171230963
89.8881081227218
90.2243499206159
90.6172744030748
91.0321924623694
91.3654524667847
91.6848662356085
92.0264245188955
92.3825934418331
92.7463110952034
93.0410758817397
93.257045385407
93.5038528617251
93.7942381866732
94.0676508286005
94.2927867595299
94.5495284268018
94.8110208273836
95.0284764755474
95.2228680745873
95.4213632709546
95.6143908162924
95.8416295785885
96.0347079615516
96.1837199687387
96.3785957475935
96.6180576764173
96.8386434764761
96.9259995532578
97.0105192947318
97.155218072578
97.2590635574773
97.3760460288312
97.5553225757527
97.7297329804422
97.7922659162963
97.8565518423753
97.9970149938776
98.18637571842
98.2909433174449
98.326923125431
98.4064799827747
98.5188152108463
98.6091039906025
98.7488745993569
98.8953261729042
98.9161305123128
98.9391408177486
99.0529778422143
99.1294654479948
99.1922446000112
99.2352533547631
99.3156340474457
99.3752040254327
99.3935680775794
99.4660486182875
99.5175063291317
99.5262928345526
99.596757397402
99.7002423322311
99.7574816291508
99.7856605304637
99.7862103460713
99.7881158154425
99.8287421404225
99.8595140602129
99.8957157172413
99.9431807715833
100.017497479465
100.040458634582
100.07279894979
100.086411313198
100.077436185138
100.091980496197
100.110768512718
100.116558725921
100.166487788486
100.228069233487
100.228507904376
100.165769133283
100.197868501106
100.312920483738
100.362168691932
100.319189198341
100.264454383327
100.293841785725
100.357447419209
100.301529517489
100.350790855347
100.375880562596
100.313469401278
100.346930298642
100.452208705275
100.494866943746
100.423053448232
100.43449017017
100.48872075611
100.430037218367
100.38249605752
100.406476367393
100.430618590897
100.425676764556
100.451198397991
100.493577832282
100.584502225316
100.495272778509
100.376818220581
100.368683042682
100.437763294314
100.464672556393
100.45870171735
100.512652003399
100.552944766074
100.520266014881
100.539211986558
100.48384209939
100.42503061374
100.387614323817
100.236348161898
100.231283923229
100.414863963346
100.506526310015
100.416009994332
100.196085193327
100.20108587546
100.419190978494
100.403597710632
100.263530166906
100.303578263415
100.213179682728
100.214232187838
100.233491617592
100.283445368035
100.198836380699
100.064237206458
100.00015139189
100.03877790882
100.156295227839
100.137624994069
99.9200481563248
99.9092121773164
100.038577218895
100.02751847422
99.8993491222998
99.8592631855113
99.833005873433
99.7751938716013
99.7123408680919
99.6383994475284
99.5529863601542
99.599035507079
99.5874311482146
99.5776967066231
99.6745937213411
99.6293640594738
99.4177101851006
99.360594830271
99.3673648225719
99.3285884800715
99.3721947968714
99.5551919683373
99.6086726599521
99.5370131682561
99.3666764220607
99.232870256502
99.1295296282243
98.9548815135817
98.8676749647637
99.0414397029506
99.1469711874696
99.0141501532864
98.9320293071015
98.9256698011065
98.7887128954641
98.7056135635858
98.742496827157
98.7414127649659
98.7464515163292
98.7440318280365
98.6504699648393
98.5402143892891
98.4885281499992
98.4870118360534
98.5364368339285
98.6638714290497
98.6773393222481
98.6643725101648
98.6465535072662
98.6279346759471
98.6857222430461
98.8582922937841
98.915762230136
98.9786086835275
98.942303789808
98.7781999764682
98.5568676810299
98.3222989057992
98.369744473694
98.625661700089
98.7529874281782
99.180378653983
99.10406359895
98.592277022077
98.5761349878696
98.9235881524979
98.827398104083
98.7689132788951
98.9343760985585
99.3627704097814
99.4421039959503
99.0591104439781
98.9197872889145
99.1927332588992
99.0330147335651
99.1766710208055
98.9413019550799
98.9045205076126
99.4045327472084
100.162821882381
100.298009995169
99.6154041471965
98.8712537337722
98.1773320712592
98.0011002006841
98.1396301422404
97.9550524336162
97.6789642113661
97.2672466653656
97.2534408513249
97.2256865635678
97.0243168564937
97.0891922223665
97.3793390044717
97.452007866575
97.2940576415676
97.1194570551443
97.3484520290351
97.398016945021
97.369048495264
97.2474934569429
97.2266244975403
97.3129656341866
97.7457353412095
98.0392124502586
97.9977704148148
97.5734373774773
97.667118610417
98.4576989831818
99.040366394575
99.2722958471851
99.5679660249297
99.4665063739664
99.6034193309178
100.138973291551
100.484135368493
99.8015849967804
100.04888509638
100.319649354413
100.361743296992
100.284489415025
100.084655039808
99.6539635742715
99.4707150827298
99.469649481221
100.204085783612
100.277574599859
100.16890569896
100.267822729415
100.481345846916
100.484482476021
100.140375021673
100.106151519726
100.304099824022
99.8460709200402
99.666837350337
99.7947135897647
99.7292182993004
99.2579747500187
99.3764952813156
99.3777084397295
99.3691874786081
99.3632933746626
99.4116366331849
99.3073814694803
99.1943590417925
99.3353040529709
99.4335792654638
99.2762072282252
99.345193904648
99.2420069402331
99.1224252546982
99.0878801488331
99.1435353844543
99.1014207100594
99.2312530606282
99.2739011892339
99.2461565603296
99.100921531901
99.1307753802991
99.1501513408564
99.1642479902463
99.1120397887091
99.1201558145679
99.0244642365844
98.9404652315433
98.9149234495486
98.9110508345291
98.8589248024477
98.8423714007807
98.7445986307833
98.6807125278697
98.5659164663113
98.5032065152783
98.400836377232
98.4780742460932
98.3556685157646
98.2083414711407
98.130748843903
97.9887347641022
97.8979925480516
97.7827887366057
97.6029168368729
97.529741781227
97.2364991774219
97.032637777915
96.8818097200974
96.6619719127264
96.4364699520003
96.2587717256185
95.7769397061579
95.4625849724181
95.1306503813057
94.8601015816647
94.2453964711607
93.5453519343537
93.004746931857
92.5610228879693
91.9259127405231
90.8819781931135
90.0510459881247
89.3035611765219
88.3193407521786
87.164370524655
85.604991691575
84.3566825519547
83.2446251098018
81.8294348503176
79.9840116172582
78.6535247498196
77.1963894385732
75.5669973639859
73.9403170956335
72.3491216535762
70.8337356780441
69.5266598913128
68.0263318784545
66.9488405276169
65.8532349354708
65.1182747603929
64.5352226495261
64.6270380264635
64.9201576676281
65.6482808000875
66.804755919819
68.1999165108493
70.0011810839608
71.5945002786631
73.2125569996996
74.9415732940602
76.4849313776774
77.8961305909162
79.2371295621324
80.4503514004058
81.5066899040739
82.3737259562361
83.2388386688798
84.0988216906013
84.7693474072734
85.3547771200334
85.8355341283737
86.3277679072097
86.8318980332751
87.1431070954054
87.5304495261826
87.8561111318855
88.089977936003
88.2704341032359
88.5090599300041
88.7571713001133
88.9626148734886
89.0563555056492
89.1629704718078
89.3533738895859
89.5482457562453
89.6139484133947
89.7230407772054
89.7748054709749
89.8702870378943
89.9803712073467
90.0178527435853
90.0609354865875
90.1432708800846
90.2329233103498
90.2479564135687
90.2761941971779
90.3351925119906
90.4421098323163
90.4750036552805
90.4021337072646
90.4515825497329
90.4665463120106
90.5428182517173
90.6097004753316
90.5943838062478
90.5746191378776
90.5708263946168
90.6014277679969
90.6048122050347
90.5452099954338
90.568627299423
90.606578815769
90.6358058308404
90.6568603399766
90.6625970509898
90.6145485673037
90.5899631016765
90.5724246936227
90.605040587792
90.6296888807606
90.6182695211593
90.6031627841281
90.6176253508748
90.6071068421035
90.5592757402031
90.5411470190992
90.5529176366699
90.5573371358009
90.5537343183674
90.5072826483497
90.4455120879482
90.4434951011757
90.4792454606536
90.4894584909931
90.4843158595504
90.4602580090324
90.4392953958199
90.4132524276902
90.4200971394803
90.4132716243443
90.3780413256563
90.3628915217483
90.3741588747493
90.3657661227262
90.3831116844279
90.370625004543
90.3309601728924
90.336370137461
90.3492217603664
90.3356750716183
90.3271604548057
90.3166934423814
90.3006478249714
90.2976428240897
90.3127802053533
90.3041031304324
90.3020367606926
90.3133921224815
90.298924128345
90.2876510420046
90.2910597237291
90.2542691414435
90.2565261689
90.2628945258412
90.2471035474923
90.2579169951337
90.2901852361781
90.3068018296917
90.3091020562229
90.2927334773314
90.2842541545579
90.2901365973656
90.3082738117959
90.3468307526137
90.3688842030186
90.344020053649
90.3227749277394
90.3269823542459
90.3502695638133
90.3750861965566
90.3772074680835
90.3424559081348
90.3605812739141
90.4027439705659
90.3856886614917
90.3608147854155
90.3931852501191
90.4115631699792
90.3775875504222
90.3705131305133
90.3855756700285
90.3793023085646
90.3766433875799
90.360772891554
90.342136499509
90.3578566286199
90.3487192076814
90.2679097579594
90.2356842199372
90.2605915707702
90.2509822842082
90.2214399211351
90.1836736158187
90.136410303549
90.1215064972033
90.1148866153383
90.0818384312187
90.0442013070106
90.0039708569651
89.9599379979865
89.9127175248716
89.8483433137749
89.793928086897
89.7777156273961
89.7365682395086
89.6555710022044
89.5685755472676
89.4887680545031
89.4275148287236
89.3797097412546
89.283797952614
89.1339347881182
89.0255698199508
88.9374819686562
88.8016486212551
88.6621723175779
88.5345719330046
88.3911035551226
88.2226383037585
88.0154353407541
87.8066656372831
87.6186678577127
87.3855589810235
87.1548848598045
86.951327905833
86.6880856531826
86.4007166513272
86.0981603630432
85.752704101117
85.4362089188618
85.0854546157785
84.6707372660928
84.3091168148453
83.9575095578848
83.4802702672525
82.9630013704255
82.5075745499634
82.0535610485193
81.5433683111078
81.0261574604322
80.4983502953215
79.9356674069807
79.3766040340012
78.7811999810491
78.1393880744131
77.5500491797557
76.9597092799377
76.3381234778819
75.6789064944298
74.9993663650965
74.3589980946805
73.7061403565122
73.0156893432147
72.3641701051204
71.7065613553086
71.0265762124696
70.3567915605734
69.6967724762856
69.0075603072977
68.2773476899871
67.5656814746409
66.935557312691
66.3066112051769
65.6333710633876
64.9530442293122
64.2398272135073
63.5289962235065
62.9335165602037
62.3333053755247
61.6663540301088
60.9820488253581
60.3448203873403
59.7529102709
59.1247628915745
58.4619950131142
57.8581396402673
57.3100088468845
56.7410964792535
56.1129750697063
55.501929203678
54.9430456203572
54.4174805092397
53.8687279884725
53.3052609663984
52.7841266129701
52.2460489657288
51.6784142221227
51.1633441171249
50.6718249930871
50.1989203808682
49.7342682193861
49.2385397763726
48.7763118833413
48.329392832474
47.8593688501187
47.4487922640711
47.0380720086523
46.6302871093311
46.2034017678897
45.794150808656
45.4499506498685
45.0533113831193
44.6718615510048
44.303900402436
43.9530989087118
43.6499205287839
43.3560248091312
42.9918662861859
42.6617730686408
42.4014851821544
42.1493338540706
41.8202995948869
41.5706961149547
41.3101232638318
41.0757772614685
40.9192325098695
40.7141582747733
40.439907711713
40.2271943524932
39.9911425194235
39.7873320457026
39.5593459047957
39.3994332347026
39.2695670047241
39.1991472563068
39.0218692648383
38.8660341598238
38.6794934142077
38.4446811711851
38.3759444711394
38.4612463440578
38.2486262242498
38.1987545475093
38.3415680729777
38.2705092538756
37.9690715449572
37.9815310385293
37.8725425620766
37.9405843600566
38.0458788686796
37.9690266524233
38.0057834974801
38.2678803465042
38.1234530928075
38.1496034144983
38.4253837365989
38.7677342747031
38.6736729911087
38.7531134655621
39.2301231975401
39.4822532168889
39.3312408569025
39.7837513807027
40.1422401906325
40.2895886004367
40.4535611053837
40.9338547218943
41.2556300529696
41.8668306740806
42.2917408860698
42.7204608073451
43.1304834621953
44.2553205871176
44.5910801320806
45.5255965975602
46.4643401136407
48.3891476742398
50.1734641651922
52.2210177605054
53.1412944781975
55.3766079132961
57.2547884947777
58.8571201654434
