967
3999.43349933624
398.825148582459
1
128
8
99.6483061750685
99.5396812349952
99.4697547960082
99.4948266307533
99.6278424409634
99.610025879131
99.6835385211696
99.7257834661158
99.546103046189
99.4669694294784
99.5140850624617
99.5171741989872
99.5418648337341
99.5398302086869
99.4906803027394
99.4672740234726
99.485667044977
99.6286631801246
99.7756980160234
99.5726632731819
99.4639317275878
99.5386849267663
99.4439011456181
99.3653299034245
99.2961399330821
99.3495200257906
99.5807800268064
99.6872531528616
99.452261952027
99.2559123473641
99.3999873617135
99.4433495224091
99.316993778195
99.4114155746169
99.4831701712791
99.4523709736883
99.727566467657
99.7661988281305
99.4127689828586
99.2642924259817
99.4685041449356
99.4991373163558
99.335006893335
99.1923196943917
99.1905149718694
99.3743461304524
99.4722108973333
99.2386449926722
99.0533935952101
99.1159126886464
99.1370268147887
99.1874260704086
99.2611802322385
99.1728667521455
99.0891807967623
99.0172990981855
98.9074372468565
98.9391614230944
99.0869337790789
99.1364435861843
99.1009873359649
99.1610371423156
99.2130113341187
99.0963317231794
99.0931946144285
99.0485890245281
98.7762923085538
98.7760796686919
98.9199492955364
98.7881580619236
98.688758004586
98.5021393460483
98.1911851478198
98.1394519468224
98.3176731993081
98.1593706133857
97.7965601623586
97.7869367115485
97.7027205558774
97.3531069117404
97.0868372133865
96.7463087515175
96.5394836559974
96.2959545873551
95.4601237171427
94.7510951669643
94.3106068174236
93.5970189555624
92.8431732262702
92.1470284259714
91.2984332774643
90.5715722698088
89.8226608534319
88.9060512501309
88.027277262939
87.2232932660068
86.3367273351274
85.4418085274524
84.7939059284413
84.363831317616
83.6669006833056
83.0004362414727
82.4163255682784
81.719363220461
81.153906886127
80.5593364375619
79.8517445234462
79.1061054330076
78.5144065326569
78.1516134667796
77.6899320030815
76.8610418574261
76.2131290142078
75.6793519531051
74.9870375000584
74.3334258160486
73.6505053456201
72.9424494102332
72.3268541953686
71.835080275805
71.2239896788068
70.3276896515061
69.6980657504745
69.1406285602353
68.4569848049051
67.8453051191396
67.254946290971
66.5986612730273
65.9255188869491
65.2686977462799
64.5739607992648
63.7248591178522
63.0321826855469
62.5373334658538
62.1115768654996
61.6142986355827
60.9880446367616
60.0424121680901
59.3401079491561
58.9654520506784
58.155497463962
57.3353169365468
56.8273142992224
56.1622310673126
55.5906471300313
55.0025839471308
54.4268661399747
53.8090401053085
53.2017786446495
52.4313990487411
51.6174377661192
50.9167141361607
50.5177610670781
50.0026737468399
49.4183228382903
48.9514657437546
48.5103269210206
47.7381792809338
47.1289348696574
46.7185985081239
46.2409608985837
45.7803914131269
45.4426353885756
44.9694041330021
44.7538438265095
44.5627962630867
44.2018359607086
43.7477263575296
43.4618677754352
43.2507280572022
43.1324181871128
42.7807678929181
42.6479915743629
42.4353970276803
42.3466276452286
42.4053065266464
42.1820625596373
41.8740597912543
41.9748242852079
42.0378393941307
41.9718413693464
41.9006113356737
42.0151200971132
41.8994878965924
41.8002772529282
41.7749405157389
41.8362191204705
41.7834338260219
41.807605752902
41.7554158987445
41.7262015612616
41.6659421347797
41.7226563124161
41.7275114663551
41.747119281901
41.7092089117273
41.755973460708
41.6321008518693
41.6450092884806
41.7117937863182
41.8128043540826
41.8219192103645
42.0046526454819
42.0936068843627
42.1173518433329
42.0812673397187
42.3148073450202
42.5938532194201
42.8794935044449
43.0862563598436
43.4756278752644
43.7409116136479
44.0661042377206
44.4481418616036
44.9434590729975
45.4184881792545
46.0058845345748
46.4069889066567
46.8704672703258
47.4034744284246
48.0822163463317
48.7377722486619
49.4340274516271
50.117870237311
50.9390164756682
51.727804572889
52.5741854338067
53.2262602687051
54.0438428940541
54.9159683840969
55.6026816777353
56.3457478274533
57.3550953969049
58.1677189799855
59.1363767892544
60.0705217413107
60.9167886749235
61.8278428896387
62.7507062149663
63.5711009681197
64.5821192987606
65.4962995934138
66.3938633130887
67.2259533443065
68.0777849778178
68.876827094964
69.7771489099724
70.6669415660561
71.6062687185038
72.3926278609668
73.1889344796319
74.0577090221437
74.7787582903577
75.4568616858671
76.3314137818853
77.0422592150198
77.6008486027918
78.3378004337249
79.1967110751249
79.8101740780261
80.4629622158009
81.1111463306083
81.6624585838576
82.1636454330625
82.7982243313925
83.4944383694436
84.0778029507149
84.5821270006081
85.2249119762849
85.648503618954
86.0791063896274
86.7139100506137
87.1806763612216
87.5104613444337
88.0377805432859
88.5838906670218
88.8897291991045
89.2058522212822
89.6606594476961
89.9553777348363
90.2547556740663
90.691448322662
91.0447801433057
91.3550537427206
91.6875728395894
91.9411041503239
92.218318732316
92.5879452217552
92.8814903157438
93.1410507264805
93.259401763724
93.4426135969232
93.7496813037477
93.9858148001456
94.1221313862758
94.3053973370078
94.530785332958
94.7218329899654
94.8895077213373
95.0747608683793
95.2954096782067
95.455111770434
95.4832988010818
95.589999221192
95.7950415385707
96.0288834156816
96.253320111481
96.322104360031
96.3096312049823
96.3642856368888
96.4874551332972
96.6400009466745
96.7116681612354
96.7779594492846
96.9249717914227
96.9898557401791
97.0592869202725
97.1700771095619
97.264502699299
97.4090767062435
97.409299506206
97.3653833002182
97.4633211933506
97.6036343827356
97.6190577768792
97.7039231672372
97.8205971379052
97.8131084970086
97.841475702
97.9467428001116
98.0032985881751
98.0728595429457
98.0451827138749
98.1383563418583
98.289356700143
98.2981428906624
98.2462189785879
98.2332682924796
98.2859368461485
98.4075527680657
98.3767016091949
98.3612456558691
98.45408299083
98.5155568319071
98.4863918503683
98.4683979653096
98.5019177527495
98.5688714350788
98.6441609356879
98.6785047527579
98.6484402133324
98.621276105079
98.6742728554423
98.7666788617324
98.7521836309924
98.7385140867571
98.7654286777681
98.7314073441641
98.7126131559528
98.7979145288578
98.8028194700995
98.7609077487178
98.7483421857108
98.7693123343048
98.8291618858413
98.9294073518084
98.939837302063
98.9439618174785
98.9606918284603
99.0007740908044
98.9785089081075
98.9072367979009
98.8665031983656
99.0002834173334
99.0933111173195
99.0098689479539
98.9609658438188
99.0522141614359
99.0278357182602
99.0475547807167
99.1027092601313
99.1229265768779
99.1384903442905
99.0315391355817
98.9635018035713
99.0846657822801
99.1610625350791
99.0284770228327
98.8207493181721
98.8129297836613
98.9205032046852
99.0732926833209
99.102538015438
99.0798706862105
99.0257332328592
99.0271680016127
98.9604934232659
98.9618549034801
99.0278939154391
99.0010951081191
98.8875251390177
98.8856762959126
98.8645420437784
98.7510191503625
98.6321734175337
98.6786582448748
98.6902933107874
98.717442153714
98.7492122072428
98.5997043359014
98.5669683127968
98.6412735932042
98.6090329118675
98.6814110878479
98.5194104868836
98.4395567935132
98.4722097195727
98.4623302476066
98.4367635373957
98.4172431638662
98.4396537378129
98.4070873930258
98.3491209754462
98.350732637377
98.3183307976851
98.1722761880713
98.2062694640394
98.2804674931323
98.059048738497
97.9917815958335
98.159164562844
98.1505104960684
97.9500721024305
97.9787596956374
97.9636259390942
97.9271287758856
97.9390704204473
97.9638027505463
97.9361291847194
97.8759904470682
97.8154312363347
97.6655058274015
97.5931480672349
97.5986864199015
97.5728674684598
97.5448942580416
97.4822010385525
97.5270448235264
97.5324899175948
97.3912780773138
97.2723319015516
97.3055941009925
97.3546783049435
97.3724565255742
97.2344216901399
97.1144998426594
97.1052206344567
97.1009337746163
97.1332247025975
97.2032380074781
97.3080230187717
97.3006498103227
97.3219648782028
97.2738581613432
97.0486098491014
97.1005565808581
97.1357633363632
97.0954637743428
97.2117220632803
97.113404154094
97.1968763468503
97.7400581336474
97.6057854483705
97.0883860310839
97.0164574303702
96.955165452678
97.1165363458048
97.3884458002378
97.1559095172291
96.8917386781446
97.0517633496286
97.3728399777198
97.4904659717247
97.6320473468125
97.3315693704183
97.3952692978444
97.2585894025713
97.1124285664312
97.3376970618664
97.6609595175175
97.9319038200842
97.6318482305769
97.2860099292896
98.1889513011591
98.421009612943
97.6276260698455
97.4308844972202
97.1962290614771
96.5052478599603
96.2036052657709
96.0236727405374
96.1253616209239
95.8800012238165
95.5998482943824
95.4240158417591
95.4168714589981
95.7195057776436
95.7879400062982
95.5009225459932
95.5990927388806
95.757886987226
95.7194314213268
95.674991404741
95.7688675901811
95.723571275812
95.8954919824612
96.2179005283891
96.3471702117587
96.3854527862535
96.475927986672
96.401229039462
96.4481960756254
96.5495709718849
96.7948229930279
97.4633669604833
98.0978215619912
98.4708316851862
98.4595132981343
98.4678990095711
98.5974275285802
98.5242251711428
98.5520953419498
98.0420267683092
97.9779018231004
98.5756929246173
98.931238522747
98.4384600980768
98.0783704988242
98.1014822331037
98.1282804381777
98.2480661543631
98.1871502076588
98.2147165445918
98.8356167552131
99.1020594071489
99.0310146660984
98.5485798548944
98.183969442327
98.1133410815217
98.2123109956063
98.116052571078
98.1277756335248
97.9547383819395
97.70139002296
97.5122852019339
97.4134704839324
97.4697850131614
97.6262935354491
97.4436046822414
97.4185031031423
97.4999109488
97.5915120181937
97.5446712908307
97.3530656174011
97.3108150727648
97.425485262854
97.3557883910905
97.34811492325
97.2891405492263
97.1670121300937
97.1148890239815
97.1338987145048
97.1642965536436
97.2035697038523
97.2321134172726
97.2083503468253
97.0609931915145
97.0036993943474
96.9909824570317
96.937051745623
96.8363760565102
96.8065531615787
96.8330191017498
96.7943977697456
96.7265745365742
96.7207152787626
96.6303256803987
96.5102664838117
96.3491434184224
96.330587066938
96.3347789910557
96.1679194594156
96.0334458632876
95.9843561759654
95.8024262649363
95.6431843754544
95.6281189614306
95.5913420249593
95.3710942508775
95.1478880605868
94.9352286754649
94.7253365209401
94.4679968201716
94.2385322732072
93.9748119042767
93.6812810732583
93.3282766405423
93.0165218896118
92.605772347981
92.0662310658014
91.4689671060244
90.8816300690658
90.2494522549369
89.5007465227187
88.6833288728815
87.7905590472025
86.8349690622149
85.8090511558369
84.5814799970037
83.3293673444397
82.0909317647516
80.6873133842465
79.1410770969685
77.8112049658295
76.3328975387952
74.7789318815627
73.2842652475545
71.726768858712
70.2285778021117
68.9111319626886
67.4903569592365
66.4905162306294
65.4506888193373
64.5790403840979
64.0596938663522
64.2395674886973
64.4423756626416
65.0935016859853
66.2690787048867
67.6477005370165
69.4354448640774
70.9740707622584
72.5096282104372
74.1915517137275
75.6899631280408
77.0654193710838
78.3154085765646
79.4213389086894
80.4589917110473
81.2468721257341
82.0431102641508
82.9138307359868
83.5442876973695
84.0763538406501
84.3874128203261
84.9878820752948
85.6275555246911
85.8086765612937
85.9673803160025
86.1841901953792
86.7191548816114
87.0239640324789
87.1039364093332
87.2206088344865
87.366570893623
87.6227305416899
87.8817927729401
87.9608475825334
87.9457167298243
88.1621869416493
88.3542034528594
88.3500881512263
88.4578296835036
88.5470116754527
88.6419067763969
88.7338309157479
88.7252055238911
88.747919779555
88.9136720810117
88.9843581169393
88.9965175975983
89.0456783620028
89.0991106479045
89.1825747348477
89.1805751390785
89.1937963498509
89.2346156216106
89.2363657831753
89.299622700825
89.3428851330543
89.3542736842153
89.3521591116604
89.3615646267316
89.4428335730585
89.4236737499048
89.3773610999365
89.4318164174342
89.4564288907461
89.4700321322595
89.5347977221615
89.538143265332
89.5262876014779
89.5749377945297
89.5608601842478
89.5291966301163
89.5625820088573
89.5708354713861
89.5365730053873
89.5283820548636
89.5415826119301
89.5447464023959
89.5527063586114
89.5533931792167
89.5258005946765
89.5234478689512
89.5381217736422
89.5549029124434
89.5392725526867
89.4815751613306
89.4622366065062
89.5021275933234
89.5026623935377
89.4833390922524
89.4885914337808
89.4732296137384
89.4704653235224
89.4971726717206
89.5110301845812
89.524777517327
89.5064243596086
89.4663950545485
89.4695370303001
89.4994515808251
89.5247436481202
89.5293040433278
89.5306627360553
89.5529803078907
89.5712848311387
89.54939952841
89.5234576105544
89.5285027339753
89.5679323219402
89.5950130995314
89.5669543207397
89.5557234199615
89.5685983215751
89.5700953916052
89.565537011024
89.5654776880473
89.5656492687064
89.5689016013697
89.5905643289421
89.5880937922258
89.5604811879953
89.567209215691
89.5988141275842
89.6212160473013
89.6327076842404
89.6240464232587
89.6310274446465
89.637417743493
89.6518498870077
89.6912674687257
89.6858288856318
89.6796670602501
89.6989834907015
89.6959008398113
89.6966867494294
89.7008986948371
89.7024842051888
89.7009761499866
89.6826739225576
89.6784289746323
89.7065318426832
89.7084924061978
89.6827122938265
89.658342029528
89.6442904473244
89.6152048823311
89.5813917726072
89.5558488174962
89.5167685429709
89.4746269761801
89.4255390274338
89.3684569710376
89.3214392772321
89.2574848109237
89.1775049837504
89.1301010499544
89.0975608012968
89.050687359419
89.00661835853
88.9775619295861
88.93812220052
88.8555489566672
88.8012683346295
88.757669726344
88.6758926084145
88.5793675853875
88.5144318480955
88.4591189468218
88.3548273167876
88.2198192188822
88.1165917717055
88.0186335475478
87.8956368265015
87.7561062210772
87.6266768263099
87.5172312316173
87.3804522491662
87.2220293310531
87.0572982331005
86.8701957650823
86.6992903993083
86.5059138511753
86.2855889016132
86.062873517366
85.8358165478274
85.5937406616072
85.313798296572
84.9953033243604
84.6487797958263
84.2874208472929
83.9582791036065
83.6073208262904
83.2092884832089
82.8014145877551
82.3973105768104
81.9706265547801
81.5212987217162
81.021935743138
80.5098839952473
79.9960101610635
79.4819705219522
78.9467236213482
78.3790019604318
77.768350156401
77.1841673246494
76.595521921671
75.9722837614483
75.3468771126534
74.722367562393
74.0497644825373
73.3715918127077
72.7144969204407
72.0905926321453
71.4063718142838
70.6777481153668
70.016682957915
69.3569862412574
68.6598454612621
68.0110258943175
67.3066756508565
66.5832774981187
65.8776144420011
65.1792414410157
64.4438704063132
63.754210875064
63.0964071493508
62.414499624752
61.7072351333578
61.0257938492331
60.3487440071393
59.6991434899783
59.045543243883
58.3755298362298
57.6924130577168
57.0565532470497
56.403294973792
55.7617372067018
55.1735843211873
54.5610686603353
53.8905531756312
53.2540261140358
52.6595057313153
52.0777015387849
51.5034502253328
50.9609672504018
50.3117653522372
49.6664829594079
49.1601270761907
48.6306480228387
48.0157301492553
47.4614411147602
46.9506511781787
46.4385925471917
45.9223671157024
45.4074710215542
44.9176174532049
44.420314766802
43.9144144382349
43.4305407309584
42.9178693369058
42.4849026273985
42.1103746976027
41.6105186968695
41.0922994186535
40.6988865996307
40.3224849092204
39.8741705972917
39.4742332949607
39.1315365463865
38.7367478528663
38.3562729231243
38.0094577923508
37.6069840315547
37.2466862411494
36.9139659037188
36.5492649086619
36.1561545169755
35.8106004756846
35.5050473504318
35.1758562736502
34.9026100290793
34.6362511671681
34.3323047682421
34.0907647001432
33.7834320263256
33.6140231773788
33.452815838265
33.2602952545169
33.0104038687885
32.6807459400043
32.3183609109507
32.2395493042474
32.1345792166668
31.7662197208041
31.4060873247306
31.2411537688152
31.1117185234872
31.2021347977497
31.0223191565619
30.6870433681256
30.4394343897964
30.2358707441955
30.1496591733346
30.1880377346082
30.1252448991094
30.0499260235817
29.8383959399196
29.599882614143
29.4235148120792
29.5181929060518
29.4741681274718
29.5442860570505
29.3833440092338
29.2571294630566
29.1836302850897
29.2236753691386
29.0486304584175
29.2608020365644
29.2191852681919
29.1227657551001
29.0250013148201
29.2687486594394
29.3828802408803
30.1665253020236
30.6362269324803
30.4745610668059
30.2396493668993
31.8393385186917
33.0237186820136
33.7477404330244
32.7184606131424
33.9838681026266
35.0886571995683
36.2194932758786
