967
3999.43349933624
398.825148582459
1
128
8
99.4497437688616
99.334560095496
99.3748413252591
99.6052336965701
99.6645155089915
99.4947480368164
99.4276931668309
99.3834031685293
99.1590110239684
99.1769665118357
99.51877343686
99.5261895962151
99.2895330639137
99.3380211116792
99.4757115281538
99.4432058526347
99.5906160377466
99.6263189579046
99.4372426353712
99.4789231276967
99.545600965
99.5881461771483
99.4357785561587
99.1182636393188
99.2242943323193
99.5206733875017
99.5139651938452
99.347248056501
99.4488047754936
99.4335408931711
99.3313836909461
99.2553285380013
99.238460605354
99.4753347996081
99.5101131070688
99.3786939340377
99.3512767884578
99.2290869550795
99.498799485909
99.6717803119636
99.2294148114771
99.2456325688924
99.6249102881088
99.5976017743696
99.1933329514616
99.2019655875302
99.2572419100436
99.2703221277505
99.2016167742734
99.0302580001385
99.2052716163055
99.3808746799393
99.1247058848092
99.0812749041753
99.2197441396104
99.0916778657855
99.0172758747368
98.9756923262861
98.9721559539581
99.0306130639014
98.9189969734165
98.8352440211801
98.7839530271362
98.9114992812358
99.0328489090678
99.0555687975027
98.9726766999856
98.7403752053257
98.559347365745
98.3248005358167
98.346347065986
98.3457781164463
98.448137869488
98.4119382143036
98.0950930224748
97.9450380830154
97.849840985138
97.6961732089247
97.2351911017372
97.0845837551338
97.007661757955
96.6209194361377
96.4074811193211
96.1757880586588
95.4020996167291
94.8273058691156
94.5906504488953
93.9990023703289
92.9744024569614
92.0729601583636
91.3364019394014
90.5945004545649
89.695552146735
89.0263873054635
88.2057297641373
87.1616662658125
86.3570148171976
85.6573668672708
85.0824227945278
84.3642877594064
83.3187434836704
82.6666721605891
82.1871547268464
81.6394059284864
81.1972714456766
80.5091387053596
79.7490577348134
79.154894934806
78.4374787682363
77.8899660919914
77.5193320086148
76.7118336342158
76.0074891476418
75.5056254279608
74.8051859329245
74.3667934885372
74.0710527771377
73.1755130751711
72.2543257596391
71.79835611086
71.217539719108
70.4649814223914
69.7348087553414
69.0135053196792
68.3728454639645
67.6915609309585
67.1791817328591
66.6055637883009
65.7895448007681
65.1188193186951
64.5817678787681
63.9060168336809
63.2063863693491
62.4931695851668
61.7817890021798
61.195407353283
60.592484586066
59.8588701113444
59.3313455397029
58.607816394288
57.9595343688601
57.5038968431372
56.8682656145534
56.2480112580373
55.612098129286
54.7484146190341
54.1984432792887
53.696809595961
53.1510624418615
52.4433888741191
51.8054927927305
51.2224667164201
50.5367277288698
49.9490489431944
49.5697536936337
48.8934009728085
48.2711687114022
47.7994018629516
47.3445143991502
46.7862088450175
46.1999818523385
45.7919426517508
45.6198032350291
45.1349203374693
44.7216135634952
44.406483724752
44.1423438254963
43.8997015485348
43.6630166801598
43.2799241974001
43.0760597495664
42.871617476942
42.6941596996659
42.4520067078853
42.331790220056
42.416300468829
42.4645213107977
42.1550415283888
41.9930493060482
41.9931421496329
42.0726312220759
41.9143648846031
41.8281849061903
41.7520924943411
41.8600575904453
41.870172545683
41.8254315880967
41.869903933237
41.95142309453
41.7436395591634
41.7481401289986
41.8117099517478
41.8237113315889
41.6654829361623
41.7012750909047
41.7211946138164
41.7311214505928
41.735659105499
41.8589778459108
41.8555055779415
41.9626034159488
41.9099640765684
41.7986515021393
41.8863350078888
42.2400724764126
42.3460455975931
42.5266095075301
42.6855996799863
42.7986333408343
42.9709703095531
43.3795607672308
43.7243398496376
44.2131904767827
44.6462506169057
45.0383811365697
45.3779371064248
45.9303296985258
46.4168190261205
47.009961764887
47.4952066122882
48.0557679416103
48.7576964320401
49.6441600316692
50.3114491432349
51.0037253108834
51.8059143123028
52.5134871544151
53.0735006904555
53.9910344083976
54.9339807351246
55.7684202804343
56.5195835103937
57.3980220723603
58.3086712814216
59.2943783735442
60.153292873319
60.9884646975033
61.7988803464791
62.6490962229787
63.5023342190734
64.5104377508237
65.4765640248028
66.4254928425493
67.2753210925245
68.1697835196169
68.9865392755171
69.831910521278
70.6791617009876
71.5840513777141
72.4115864376127
73.2227132603668
74.0212171380521
74.7821731439542
75.4485206435258
76.2462127737122
77.0912736643394
77.7355258540167
78.3899832883972
79.2239479796063
79.8617362175097
80.4398536581814
81.113579020621
81.7614369996967
82.3283725807064
82.8514348297657
83.4720268632043
84.1175640440803
84.6318457973575
85.1575955689901
85.712379976415
86.1821483721552
86.6917840402759
87.3076398502369
87.8500983173715
88.0786516749664
88.3407968407837
88.9003461090767
89.4275431882187
89.7776167620936
89.991533140475
90.2615504044094
90.6303843093023
91.0263742871852
91.3145817649271
91.5844812669894
91.9097735628753
92.1681569152489
92.4015934764432
92.6014976365225
92.8908849309913
93.1890340422377
93.4977264626105
93.6820654179766
93.8464858116917
94.0070886437224
94.3036484266424
94.4942864029476
94.6294473627368
94.8243505140894
95.0442637488661
95.2665720889622
95.463205974237
95.6066801346055
95.7070742985735
95.7701359413295
95.9148288104691
96.0323328845107
96.1253272814708
96.3436682258245
96.5698392393176
96.5862973930441
96.626959426045
96.7238739453322
96.8342782147397
96.8863597384485
96.9946882611051
97.1635340140898
97.2561279351497
97.2786951093345
97.3832761452299
97.4670408249917
97.5661600532272
97.6129396431936
97.6279695353337
97.694381917927
97.8069704735768
97.8506022597067
97.8746367281989
97.9036849022301
97.8882010059901
97.9616228562121
98.0969966595476
98.1387174188002
98.2142914764481
98.2490374474592
98.2437338921268
98.2431228659708
98.2780526848338
98.3433625691216
98.4205243991644
98.4415998646338
98.4702576761789
98.4307181054346
98.4734143947519
98.5621165198681
98.5403912763419
98.5742379466855
98.6132448829396
98.6486362810835
98.6758864696986
98.6373112214773
98.6772268355315
98.6944367382833
98.6950812351039
98.6893664234544
98.6737043434333
98.7103530728092
98.6842504177662
98.6480689649105
98.7694192357184
98.8856858879995
98.887947522601
98.921271620711
98.879094735904
98.7956249796069
98.8272805081215
98.924775384242
98.9880719794407
99.0237279294841
99.0499991990654
99.0407405440381
99.0084924081905
98.9615129842575
98.987663255346
99.0679998920995
99.0955716652851
98.9972513148073
99.0286421853355
99.136604864376
99.2096610390032
99.1302132007126
99.020966442229
99.0235424088863
99.1343997324535
99.0728682709393
98.9944929519558
99.0710895312933
99.146511237939
99.1223668262903
99.0638915688481
99.0869495328536
99.0826713840381
99.0679801750945
99.0332537607807
98.9934643401643
99.0138074965867
98.9225511457515
98.9008321585036
98.9610063888195
98.9386194492615
98.8620061069562
98.9234781790669
98.8003472051323
98.648223086275
98.8332722804376
98.8776418160055
98.7566349208126
98.8541192730229
98.8264766042967
98.7147817336081
98.6616456934683
98.6833123039701
98.6635373196884
98.5615871219039
98.5398803945125
98.6090889633454
98.5640524766975
98.5305343315049
98.4760187873389
98.3984007583038
98.3875567106131
98.4444316010463
98.4659502610702
98.2720665931259
98.1290532056687
98.1897363906585
98.2552349227835
98.4559373864167
98.2566447991836
97.9642267123313
97.8829172579306
97.9225659315893
97.9310457698216
98.0186277894485
98.0800586538715
97.9284498394953
97.9218217562371
98.0948366187972
98.0663125587412
97.9478640807113
97.8779973649366
97.7725641441873
97.5599729762443
97.4893804868022
97.5840323960029
97.5521938364472
97.4742047789244
97.4906933716984
97.3516912371
97.3279094314059
97.3292749445648
97.3359716386664
97.2531290232306
97.2607496080232
97.3032582404399
97.2492073896415
97.2307637709379
97.2796369692535
97.244676822059
97.1290926096913
97.099307827674
97.1930976074706
97.3796083445379
97.3370004047294
97.0998050830761
97.1265175653159
97.2668525374892
97.3035177195282
97.371810672301
97.3582519259942
97.0756268275112
96.9678971628286
97.1568538053528
97.4687214751934
97.3629338369209
97.0151458006015
96.8422948933557
97.1073864624597
97.2336793521307
97.4278020747134
97.5316206805108
97.2775076440507
97.1471516800693
97.0140985811586
97.0130774895504
97.5349488744705
97.9351067541208
97.9563987168727
97.7940734615726
97.7297937123979
97.3765357676176
97.2309310773599
97.8078678592757
97.9471648586896
97.9204427601879
97.6602115105704
97.3828650473657
97.1311335309175
96.620337141334
96.4434431298595
96.2996032666653
96.0015334692347
95.7453579055964
95.6355639701693
95.491534416261
95.4160801602171
95.5238377727312
95.5837219453318
95.7528949964579
95.824909994418
95.675321481017
95.6076233734231
95.6434875926071
95.6351313353246
95.8193151655997
96.02055360155
96.0545092850281
96.0859330072645
96.1598731847933
96.2573889026748
96.4225835141976
96.7369861445491
96.9095754651398
97.2633550731064
97.6247549817919
97.6448108554567
97.5695606491095
97.6328896514831
98.0454635065556
98.5789728593578
98.8127781860066
98.8261832412834
98.3795938561019
98.4453808684215
98.5020018762865
98.3075218001098
97.7161308620264
97.7332067899211
98.0844507292057
98.4959111957647
99.1436286950075
99.0984754809447
98.6719366540337
98.5627112755199
98.1725762992632
98.1284542593177
98.2782526604626
98.3489682517964
98.1948132124828
98.0000411488733
97.7377576717056
97.6609836104957
97.8065296851918
97.8018310017556
97.4528031776399
97.4075080156045
97.4432128034304
97.4349614387674
97.5362819697887
97.4896762121804
97.3454486709524
97.3491666518545
97.3618623833811
97.3574024268985
97.3672728367889
97.4970673267707
97.4679935517163
97.3091964553673
97.1791324467208
97.2497056181815
97.2865338258647
97.2035187742658
97.1190831693824
97.1067397970736
97.0678064383583
97.0569088338758
97.0458390047612
97.0870080279299
97.1036892364875
96.9381151662682
96.8092262432126
96.8604875199331
96.8874977730468
96.786157063801
96.6626760283865
96.6085816498984
96.5296492432861
96.4535100656567
96.3823488858521
96.3759363904056
96.325080724026
96.2768061843167
96.1470042625566
95.9907147068968
95.8591845158721
95.7324537120322
95.623802894012
95.5077781037907
95.3027409582511
95.1782992026091
94.9669396685138
94.6916099229296
94.4941299371745
94.3561949458564
94.0276009365042
93.6569543143879
93.2853753697817
92.9757507215548
92.5026253475236
91.9640141019058
91.4488092403304
90.9462044463472
90.346188415293
89.4338252931732
88.6516822835456
87.8509202722772
86.9430303663039
85.8848076606287
84.5148312049194
83.2756624506893
82.1516211997627
80.7270314678062
79.0802386781897
77.8365569042805
76.3728033425208
74.7608094329338
73.2936014908381
71.7403521141486
70.2606677303728
68.9548456242972
67.4470469140878
66.4478800150812
65.4355384604103
64.6575434821865
64.1396167330303
64.2775423334423
64.5261134567436
65.1729898883523
66.2756199475796
67.5758429452726
69.393256878835
71.025333638431
72.5464188285424
74.1715510435176
75.6516251646643
77.0468906761489
78.3562648795248
79.4937472238664
80.4897773924153
81.2956763372181
82.093986368176
82.9444920248119
83.5826251003009
84.1197254781046
84.48533577027
85.0061010500836
85.6281919476606
85.8650871589953
86.0912936533768
86.3775722340756
86.7683417424063
86.9818276601039
87.0918615378042
87.2816682026071
87.4844608083586
87.6696804086307
87.8321786391643
87.9434967248914
88.0685019115106
88.232454850622
88.3312840850633
88.3599803778006
88.4663381265515
88.557298750247
88.6252872600049
88.7303452927037
88.7906623537579
88.8619061125635
88.9395117973452
88.9974519297162
89.0168227948137
89.0862390078261
89.1255877143917
89.1685276586021
89.2110226832434
89.1939334935205
89.2449523068524
89.2830258174102
89.2810674123908
89.3062459132232
89.3215011926748
89.358262414799
89.3739964478121
89.3715519982611
89.4088039658799
89.4161078843922
89.435846595848
89.4850480445287
89.5154652188047
89.5051861211616
89.5035111140642
89.5100300938645
89.5353921785378
89.5426797493061
89.5636825929988
89.5836493710388
89.545873097234
89.5061002742219
89.5206312273504
89.4967903085217
89.4826984944437
89.5169522151317
89.5244193318109
89.5168382878742
89.5072872685212
89.5114674695942
89.51665259218
89.4877069165344
89.4780938679287
89.5037115909229
89.5152028246523
89.4952166196613
89.489557277615
89.4847297273362
89.480406280169
89.5005824746335
89.4817797075818
89.4490820599696
89.4610914244881
89.4929346043989
89.5019445192818
89.4768591493481
89.4808652774481
89.518174184333
89.5450022903074
89.535067117014
89.5314784929009
89.5415818645236
89.539330859778
89.5338067782459
89.5165397747952
89.505405367522
89.5175707989105
89.5274916510573
89.5324574450902
89.536983320942
89.5363209714282
89.5448847389786
89.5518782474617
89.55315879056
89.5594667307179
89.5633369548839
89.5747111033395
89.5859693671978
89.5830120252686
89.581335397253
89.5989571792956
89.6205030374966
89.6222900629341
89.628924819315
89.6322652009492
89.6288112401939
89.6595147750511
89.6865905321112
89.6762313199121
89.6458222424107
89.6319924578184
89.6471983736169
89.631334917505
89.6007911126739
89.5882714602576
89.5956013946459
89.6136258531792
89.5971110509493
89.5648128725712
89.5632011778215
89.5557089344002
89.5469621740043
89.526883486145
89.4980115621016
89.4922758544964
89.4648141770445
89.4253203417894
89.4133161453244
89.3798013539074
89.3039301666189
89.2540934580526
89.2248633039169
89.1727063265471
89.1377978508775
89.0844188366319
89.0121801740642
88.9588530841072
88.9199316767654
88.860359738958
88.7787508630553
88.7124762395189
88.6655574228897
88.5871896708499
88.4912937320001
88.41676771942
88.3318226390055
88.2241741291976
88.1237612937753
88.0232137978397
87.9026859867698
87.7635637385359
87.6329827783026
87.5055139227667
87.3884966236646
87.2382087789
87.0500342951439
86.8788430782433
86.7055312784277
86.5081491728843
86.2929559955837
86.0601494345506
85.8624411791083
85.621596756594
85.2996125286253
84.995759569042
84.7096983932025
84.3570575152185
83.9772187127852
83.5973934061137
83.2161662426498
82.8290602262869
82.4210744406876
81.9490276243945
81.4666859054769
80.9923833811864
80.5005984937297
79.9799669686183
79.4652341533474
78.9326340388687
78.3674086908719
77.7760594637004
77.1932756399407
76.5945093676981
76.0013922094618
75.3558002654123
74.652155520423
73.9832176825508
73.3769368208162
72.7524777120064
72.061726364442
71.3679406978158
70.7114592833095
70.0321156171336
69.3534680242816
68.6734447580336
67.9863351586754
67.2355342780314
66.5067036021782
65.8556725130253
65.1827222764266
64.4419707484252
63.72484554674
63.0864461543909
62.4268091267007
61.689384670165
60.9919529622832
60.3253352518388
59.6858612024252
59.0205245468878
58.3273238961972
57.6644815827146
57.0541293599003
56.3883469622548
55.7126571730453
55.0745976193894
54.4707241279576
53.895192028483
53.2883596295442
52.6787829593329
52.0939770907293
51.4348798407615
50.8219296436023
50.2489319655081
49.7109083054951
49.177575654231
48.6569154323634
48.0935358793073
47.4693800974242
46.9043151007287
46.420533728183
45.9457556561374
45.3990735853168
44.8439700648872
44.3973011193749
43.8903632747559
43.3655553492722
42.8980287220795
42.470665265162
42.0334543013071
41.6039638719376
41.1713474908677
40.7177764906958
40.2369500679838
39.8239348613245
39.5177004517548
39.1152534877675
38.6599136442783
38.2266342637434
37.8829292943995
37.530139918348
37.193556612369
36.915342927325
36.595951841208
36.2525181583357
35.8769969344808
35.4834052038711
35.2185020406356
34.9239011156748
34.6070396600416
34.2811425115075
34.0124671801332
33.8711355372221
33.7131707133936
33.4978277588216
33.3163634886495
33.0565890984037
32.7602986123943
32.3945795466236
32.0695061358048
31.8186762946144
31.6416392184747
31.4037689386136
31.2921672342934
31.1998348222666
31.114367213898
30.8027474566095
30.5469881091917
30.3614446530839
30.1561409657537
29.9136302495831
30.0832810385328
29.9923571959693
29.6857312924044
29.5653874731464
29.6105584997636
29.4177322994847
29.3546423029612
29.3280327549057
29.4448321280778
29.3255456493568
29.176023631513
28.9650036413124
29.0143834938128
28.9822375910784
29.1267951488396
29.1279440608412
29.1503797079629
29.1344507486331
29.5191668283563
29.6366001016398
29.9150461268619
29.6280144768397
29.4646267476996
29.5109280672078
31.6028081629786
34.1820879403157
33.77190199577
32.3325870934737
34.1664153473535
33.8732831745978
34.4985397424889
